#Spannung [V]	Magnetfeld [mT]	Spannung transformiert
3	373	3.69
2.9	360	3.048
2.8	352	2.594
2.7	343	2.091
2.6	334	1.637
2.5	324	1.134
2.4	315	0.68
2.3	304	0.214
2.2	293	-0.239
2.1	283	-0.743
2	271	-1.196
1.9	260	-1.65
1.8	249	-2.154
1.7	237	-2.607
1.6	225	-3.073
1.5	213	-3.526