#Spannung  [V]	Magnetfeld [mT]	Spannung transformiert [V]
1.5	203	-3.526
1.6	213	-3.073
1.7	225	-2.607
1.8	237	-2.154
1.9	249	-1.65
2	262	-1.196
2.1	276	-0.743
2.2	285	-0.239
2.3	296	0.214
2.4	307	0.68
2.5	318	1.134
2.6	328	1.637
2.7	339	2.091
2.8	349	2.594
2.9	359	3.048
3	373	3.69