#Spannung  [V]	Magnetfeld [mT]	Spannung transformiert [V]
1.5	208	-3.476
1.6	218	-2.972
1.7	232	-2.519
1.8	241	-2.065
1.9	253	-1.612
2	264	-1.146
2.1	276	-0.655
2.2	286	-0.163
2.3	297	0.315
2.4	308	0.768
2.5	318	1.222
2.6	329	1.7
2.7	339	2.179
2.8	349	2.657
2.9	359	3.111
3	373	3.741